Date,Time,Open,High,Low,Close,Volume,OpenInt
2014-02-10,16:00:00,62.936,63.454,62.717,63.036,30572,0
2014-02-10,17:00:00,63.016,63.136,62.658,62.737,36057,0
2014-02-10,18:00:00,62.747,62.877,62.608,62.727,42838,0
2014-02-10,19:00:00,62.727,62.777,62.638,62.777,33463,0
2014-02-10,20:00:00,62.777,62.936,62.707,62.907,41381,0
2014-02-10,21:00:00,62.887,63.165,62.867,63.076,32863,0
2014-02-10,22:00:00,63.056,63.195,62.956,63.146,97830,0
2014-02-11,16:00:00,63.126,63.624,62.917,63.165,27037,0
2014-02-11,17:00:00,63.235,63.235,62.877,62.966,25442,0
2014-02-11,18:00:00,63.006,63.345,62.917,63.305,28231,0
2014-02-11,19:00:00,63.305,63.325,63.126,63.185,18865,0
2014-02-11,20:00:00,63.235,63.444,63.185,63.345,82550,0
2014-02-11,21:00:00,63.345,63.534,63.325,63.534,41464,0
2014-02-11,22:00:00,63.514,63.614,63.474,63.564,105171,0
2014-02-12,16:00:00,63.534,63.912,63.434,63.693,16778,0
2014-02-12,17:00:00,63.783,63.813,63.494,63.494,14888,0
2014-02-12,18:00:00,63.454,63.653,63.454,63.554,45727,0
2014-02-12,19:00:00,63.574,63.634,63.564,63.604,10946,0
2014-02-12,20:00:00,63.624,63.743,63.594,63.703,18058,0
2014-02-12,21:00:00,63.673,63.683,63.544,63.574,21723,0
2014-02-12,22:00:00,63.584,63.723,63.544,63.673,85230,0
2014-02-13,16:00:00,63.275,63.634,63.275,63.584,14547,0
2014-02-13,17:00:00,63.574,63.863,63.514,63.843,16391,0
2014-02-13,18:00:00,63.843,64.042,63.803,63.962,13412,0
2014-02-13,19:00:00,63.902,64.012,63.863,64.012,9310,0
2014-02-13,20:00:00,63.982,64.231,63.972,64.112,19682,0
2014-02-13,21:00:00,64.161,64.271,64.092,64.161,13511,0
2014-02-13,22:00:00,64.131,64.151,64.002,64.151,80458,0
2014-02-14,16:00:00,63.942,64.271,63.942,64.211,23670,0
2014-02-14,17:00:00,64.211,64.37,64.151,64.291,16115,0
2014-02-14,18:00:00,64.231,64.51,64.211,64.48,11405,0
2014-02-14,19:00:00,64.48,64.51,64.41,64.45,9170,0
2014-02-14,20:00:00,64.46,64.57,64.43,64.57,10285,0
2014-02-14,21:00:00,64.54,64.669,64.53,64.619,20650,0
2014-02-14,22:00:00,64.629,64.639,64.39,64.5,50925,0
2014-02-18,16:00:00,64.719,64.719,64.042,64.251,11973,0
2014-02-18,17:00:00,64.201,64.5,64.121,64.49,129709,0
2014-02-18,18:00:00,64.46,64.709,64.41,64.59,29716,0
2014-02-18,19:00:00,64.57,64.629,64.52,64.599,31061,0
2014-02-18,20:00:00,64.59,64.659,64.51,64.59,26796,0
2014-02-18,21:00:00,64.599,64.709,64.49,64.699,22438,0
2014-02-18,22:00:00,64.689,64.878,64.609,64.709,88482,0
2014-02-19,16:00:00,64.5,64.659,64.231,64.609,68069,0
2014-02-19,17:00:00,64.619,65.077,64.599,65.077,23040,0
2014-02-19,18:00:00,65.028,65.207,64.928,64.998,31901,0
2014-02-19,19:00:00,64.779,64.779,64.38,64.45,36532,0
2014-02-19,20:00:00,64.45,64.709,64.44,64.52,23718,0
2014-02-19,21:00:00,64.45,64.639,64.44,64.57,20622,0
2014-02-19,22:00:00,64.59,64.59,64.191,64.251,80560,0
2014-02-20,16:00:00,64.181,65.177,64.181,64.42,64667,0
2014-02-20,17:00:00,64.321,64.729,64.181,64.54,33377,0
2014-02-20,18:00:00,64.52,64.52,64.102,64.102,33092,0
2014-02-20,19:00:00,64.181,64.43,64.072,64.43,27412,0
2014-02-20,20:00:00,64.45,64.45,64.092,64.092,38734,0
2014-02-20,21:00:00,64.072,64.609,63.992,64.609,31034,0
2014-02-20,22:00:00,64.58,64.639,64.42,64.58,144116,0
2014-02-21,16:00:00,64.659,64.659,64.261,64.54,10366,0
2014-02-21,17:00:00,64.55,64.59,64.211,64.54,26064,0
2014-02-21,18:00:00,64.48,64.719,64.48,64.669,8797,0
2014-02-21,19:00:00,64.719,64.759,64.619,64.729,18855,0
2014-02-21,20:00:00,64.759,64.769,64.629,64.759,20803,0
2014-02-21,21:00:00,64.749,64.749,64.47,64.55,20163,0
2014-02-21,22:00:00,64.54,64.57,64.351,64.37,41809,0
2014-02-24,16:00:00,64.43,64.699,64.241,64.659,12096,0
2014-02-24,17:00:00,64.54,64.759,64.46,64.759,16579,0
2014-02-24,18:00:00,64.719,64.958,64.709,64.878,76680,0
2014-02-24,19:00:00,64.848,64.918,64.739,64.799,26307,0
2014-02-24,20:00:00,64.659,64.729,64.45,64.45,13341,0
2014-02-24,21:00:00,64.45,64.56,64.41,64.49,18301,0
2014-02-24,22:00:00,64.5,64.5,64.072,64.102,84727,0
2014-02-25,16:00:00,64.022,64.351,63.982,64.301,28128,0
2014-02-25,17:00:00,64.291,64.649,64.191,64.599,19581,0
2014-02-25,18:00:00,64.599,64.699,64.47,64.49,30405,0
2014-02-25,19:00:00,64.48,64.48,64.351,64.43,13682,0
2014-02-25,20:00:00,64.43,64.53,64.321,64.36,18848,0
2014-02-25,21:00:00,64.4,64.49,64.261,64.46,22217,0
2014-02-25,22:00:00,64.47,64.49,64.251,64.331,55769,0
2014-02-26,16:00:00,64.55,64.908,64.55,64.679,9838,0
2014-02-26,17:00:00,64.699,65.068,64.619,64.978,22723,0
2014-02-26,18:00:00,64.988,65.157,64.928,65.068,30215,0
2014-02-26,19:00:00,65.018,65.366,65.018,65.336,40753,0
2014-02-26,20:00:00,65.326,65.336,65.028,65.077,27550,0
2014-02-26,21:00:00,65.087,65.097,64.679,64.769,22150,0
2014-02-26,22:00:00,64.789,64.789,64.609,64.669,71826,0
2014-02-27,16:00:00,64.58,64.978,64.58,64.928,11848,0
2014-02-27,17:00:00,64.988,65.018,64.709,65.018,19648,0
2014-02-27,18:00:00,65.018,65.356,65.018,65.316,34059,0
2014-02-27,19:00:00,65.287,65.287,65.048,65.048,11500,0
2014-02-27,20:00:00,65.048,65.446,65.048,65.207,71805,0
2014-02-27,21:00:00,65.257,65.267,65.097,65.117,20558,0
2014-02-27,22:00:00,65.117,65.326,65.077,65.237,74679,0
2014-02-28,16:00:00,65.237,65.715,65.237,65.635,166475,0
2014-02-28,17:00:00,65.745,66.103,65.745,66.083,29416,0
2014-02-28,18:00:00,66.053,66.462,66.053,66.422,32184,0
2014-02-28,19:00:00,66.342,66.362,66.233,66.302,18406,0
2014-02-28,20:00:00,66.292,66.322,66.133,66.133,25694,0
2014-02-28,21:00:00,66.113,66.113,65.615,65.824,61406,0
2014-02-28,22:00:00,65.745,65.954,65.476,65.894,112985,0
2014-03-03,16:00:00,65.257,65.406,64.918,64.998,67545,0
2014-03-03,17:00:00,65.068,65.287,64.988,65.217,26058,0
2014-03-03,18:00:00,65.207,65.227,64.928,64.928,45338,0
2014-03-03,19:00:00,64.928,65.157,64.829,65.127,41698,0
2014-03-03,20:00:00,65.137,65.536,65.117,65.426,27456,0
2014-03-03,21:00:00,65.466,65.476,65.197,65.197,33518,0
2014-03-03,22:00:00,65.207,65.207,64.928,65.058,127779,0
2014-03-04,16:00:00,65.974,66.093,65.824,65.894,14578,0
2014-03-04,17:00:00,65.994,66.073,65.675,65.745,30166,0
2014-03-04,18:00:00,65.715,65.794,65.555,65.715,23943,0
2014-03-04,19:00:00,65.725,65.775,65.486,65.546,34963,0
2014-03-04,20:00:00,65.506,65.585,65.376,65.456,20261,0
2014-03-04,21:00:00,65.496,65.496,65.207,65.336,36654,0
2014-03-04,22:00:00,65.316,65.476,65.316,65.476,108805,0
2014-03-05,16:00:00,65.336,65.386,65.157,65.336,7166,0
2014-03-05,17:00:00,65.326,65.366,65.217,65.297,21489,0
2014-03-05,18:00:00,65.356,65.436,65.287,65.416,14059,0
2014-03-05,19:00:00,65.446,65.605,65.396,65.575,37200,0
2014-03-05,20:00:00,65.655,65.765,65.536,65.645,43047,0
2014-03-05,21:00:00,65.645,65.705,65.585,65.595,16055,0
2014-03-05,22:00:00,65.635,65.665,65.546,65.655,56614,0
2014-03-06,16:00:00,65.625,65.864,65.466,65.725,13588,0
2014-03-06,17:00:00,65.735,65.735,65.546,65.605,26549,0
2014-03-06,18:00:00,65.625,65.655,65.466,65.615,34904,0
2014-03-06,19:00:00,65.655,65.655,65.516,65.575,25485,0
2014-03-06,20:00:00,65.585,65.625,65.496,65.546,21628,0
2014-03-06,21:00:00,65.575,65.585,65.506,65.575,19803,0
2014-03-06,22:00:00,65.575,65.645,65.396,65.476,70880,0
2014-03-07,16:00:00,65.994,65.994,65.316,65.406,9821,0
2014-03-07,17:00:00,65.396,65.635,65.386,65.466,18652,0
2014-03-07,18:00:00,65.456,65.456,65.217,65.386,13536,0
2014-03-07,19:00:00,65.446,65.536,65.406,65.476,11934,0
2014-03-07,20:00:00,65.496,65.536,65.346,65.466,26671,0
2014-03-07,21:00:00,65.436,65.555,65.316,65.446,15101,0
2014-03-07,22:00:00,65.506,65.536,65.267,65.456,84374,0
2014-03-10,15:00:00,65.396,65.585,65.396,65.585,5774,0
2014-03-10,16:00:00,65.416,65.416,64.988,65.117,44025,0
2014-03-10,17:00:00,65.048,65.277,65.048,65.187,17598,0
2014-03-10,18:00:00,65.187,65.366,65.137,65.336,65972,0
2014-03-10,19:00:00,65.426,65.446,65.267,65.287,21791,0
2014-03-10,20:00:00,65.277,65.356,65.247,65.336,16658,0
2014-03-10,21:00:00,65.287,65.406,65.187,65.287,83490,0
2014-03-11,15:00:00,65.476,65.555,65.227,65.297,23705,0
2014-03-11,16:00:00,65.287,65.466,65.087,65.466,12911,0
2014-03-11,17:00:00,65.376,65.406,65.097,65.147,19929,0
2014-03-11,18:00:00,65.167,65.197,64.928,64.938,12884,0
2014-03-11,19:00:00,64.938,64.998,64.779,64.928,31734,0
2014-03-11,20:00:00,64.928,64.958,64.759,64.769,17232,0
2014-03-11,21:00:00,64.779,64.829,64.629,64.789,52905,0
2014-03-12,15:00:00,64.52,64.669,64.291,64.351,7732,0
2014-03-12,16:00:00,64.291,64.699,64.241,64.629,50413,0
2014-03-12,17:00:00,64.669,64.779,64.47,64.719,66147,0
2014-03-12,18:00:00,64.858,64.858,64.739,64.838,13520,0
2014-03-12,19:00:00,64.858,64.868,64.629,64.699,18401,0
2014-03-12,20:00:00,64.669,64.749,64.669,64.669,21033,0
2014-03-12,21:00:00,64.639,64.769,64.639,64.769,135859,0
2014-03-13,15:00:00,64.998,65.147,64.719,65.147,19738,0
2014-03-13,16:00:00,65.058,65.058,64.57,64.57,18267,0
2014-03-13,17:00:00,64.619,64.759,64.45,64.5,21623,0
2014-03-13,18:00:00,64.48,64.48,64.112,64.112,13703,0
2014-03-13,19:00:00,64.102,64.251,64.022,64.221,16936,0
2014-03-13,20:00:00,64.221,64.241,63.942,63.952,22950,0
2014-03-13,21:00:00,63.922,64.022,63.833,63.882,89719,0
2014-03-14,15:00:00,63.723,64.47,63.723,64.45,13035,0
2014-03-14,16:00:00,64.44,64.699,64.36,64.36,23166,0
2014-03-14,17:00:00,64.37,64.56,64.181,64.56,22725,0
2014-03-14,18:00:00,64.57,64.639,64.47,64.55,21021,0
2014-03-14,19:00:00,64.57,64.57,64.241,64.321,17071,0
2014-03-14,20:00:00,64.321,64.41,64.131,64.131,21009,0
2014-03-14,21:00:00,64.131,64.261,64.131,64.241,67160,0
2014-03-17,15:00:00,64.44,64.908,64.44,64.878,9941,0
2014-03-17,16:00:00,64.878,64.958,64.619,64.619,17949,0
2014-03-17,17:00:00,64.609,64.719,64.52,64.669,29720,0
2014-03-17,18:00:00,64.669,64.878,64.669,64.868,12360,0
2014-03-17,19:00:00,64.858,64.858,64.729,64.789,14023,0
2014-03-17,20:00:00,64.799,64.928,64.739,64.838,23148,0
2014-03-17,21:00:00,64.838,64.868,64.609,64.689,53922,0
2014-03-18,15:00:00,64.749,64.968,64.669,64.958,8180,0
2014-03-18,16:00:00,64.958,65.127,64.938,65.008,14904,0
2014-03-18,17:00:00,65.048,65.137,65.018,65.137,14163,0
2014-03-18,18:00:00,65.137,65.137,65.018,65.087,15336,0
2014-03-18,19:00:00,65.087,65.237,65.058,65.097,21381,0
2014-03-18,20:00:00,65.177,65.217,65.097,65.157,18313,0
2014-03-18,21:00:00,65.147,65.197,65.038,65.197,92552,0
2014-03-19,15:00:00,64.998,65.426,64.988,65.316,20159,0
2014-03-19,16:00:00,65.316,65.476,65.267,65.446,20298,0
2014-03-19,17:00:00,65.436,65.486,65.297,65.307,18419,0
2014-03-19,18:00:00,65.307,65.336,65.068,65.107,18374,0
2014-03-19,19:00:00,65.077,65.097,65.018,65.068,14421,0
2014-03-19,20:00:00,65.038,65.048,64.699,64.819,29717,0
2014-03-19,21:00:00,64.779,64.809,64.201,64.59,79741,0
2014-03-20,15:00:00,64.54,64.54,64.37,64.46,9702,0
2014-03-20,16:00:00,64.47,64.699,64.281,64.57,20586,0
2014-03-20,17:00:00,64.56,64.56,64.39,64.39,22529,0
2014-03-20,18:00:00,64.42,64.639,64.39,64.619,11068,0
2014-03-20,19:00:00,64.619,64.639,64.331,64.351,16143,0
2014-03-20,20:00:00,64.38,64.41,64.251,64.36,33166,0
2014-03-20,21:00:00,64.37,64.49,64.36,64.39,68276,0
2014-03-21,15:00:00,64.619,65.077,64.619,65.028,8883,0
2014-03-21,16:00:00,64.958,65.068,64.689,64.928,22528,0
2014-03-21,17:00:00,64.988,65.247,64.988,65.008,14762,0
2014-03-21,18:00:00,64.998,65.058,64.938,64.938,12954,0
2014-03-21,19:00:00,64.978,64.978,64.51,64.57,16145,0
2014-03-21,20:00:00,64.54,64.619,64.38,64.55,27058,0
2014-03-21,21:00:00,64.54,64.669,64.301,64.48,377134,0
2014-03-24,15:00:00,64.271,64.948,64.271,64.599,13839,0
2014-03-24,16:00:00,64.56,64.56,63.773,63.902,18778,0
2014-03-24,17:00:00,63.863,63.882,63.375,63.404,31410,0
2014-03-24,18:00:00,63.414,63.634,63.205,63.285,52251,0
2014-03-24,19:00:00,63.275,63.663,63.275,63.653,14948,0
2014-03-24,20:00:00,63.683,63.753,63.584,63.703,25595,0
2014-03-24,21:00:00,63.703,63.972,63.693,63.922,66390,0
2014-03-25,15:00:00,64.082,64.4,64.022,64.022,9100,0
2014-03-25,16:00:00,64.171,64.271,63.773,63.773,20969,0
2014-03-25,17:00:00,63.773,63.912,63.634,63.763,23037,0
2014-03-25,18:00:00,63.763,63.853,63.614,63.713,22946,0
2014-03-25,19:00:00,63.653,63.902,63.653,63.902,13933,0
2014-03-25,20:00:00,63.902,64.012,63.793,63.922,40177,0
2014-03-25,21:00:00,63.912,64.002,63.793,63.892,78020,0
2014-03-26,15:00:00,64.191,64.241,63.843,63.843,4727,0
2014-03-26,16:00:00,63.853,64.141,63.673,63.733,10894,0
2014-03-26,17:00:00,63.673,63.952,63.673,63.763,7831,0
2014-03-26,18:00:00,63.833,63.932,63.673,63.773,9109,0
2014-03-26,19:00:00,63.753,63.833,63.404,63.444,9968,0
2014-03-26,20:00:00,63.434,63.703,63.355,63.693,20162,0
2014-03-26,21:00:00,63.683,63.683,63.245,63.305,59589,0
2014-03-27,15:00:00,63.136,63.136,62.847,63.046,7656,0
2014-03-27,16:00:00,63.046,63.454,63.006,63.245,19073,0
2014-03-27,17:00:00,63.245,63.464,63.066,63.185,17142,0
2014-03-27,18:00:00,63.215,63.265,62.996,63.215,16028,0
2014-03-27,19:00:00,63.235,63.464,63.175,63.295,20352,0
2014-03-27,20:00:00,63.175,63.404,63.175,63.305,18044,0
2014-03-27,21:00:00,63.295,63.454,63.195,63.424,43222,0
2014-03-28,15:00:00,63.544,64.012,63.544,63.783,13898,0
2014-03-28,16:00:00,63.853,64.261,63.833,64.201,18444,0
2014-03-28,17:00:00,64.231,64.291,64.181,64.281,30957,0
2014-03-28,18:00:00,64.301,64.341,64.062,64.062,13967,0
2014-03-28,19:00:00,64.131,64.131,63.942,63.942,12730,0
2014-03-28,20:00:00,63.863,64.022,63.683,63.992,37493,0
2014-03-28,21:00:00,63.972,64.052,63.843,64.002,45819,0
2014-03-31,16:00:00,64.43,64.609,64.181,64.351,16374,0
2014-03-31,17:00:00,64.45,64.928,64.41,64.799,21744,0
2014-03-31,18:00:00,64.789,65.048,64.789,64.898,24535,0
2014-03-31,19:00:00,64.908,65.555,64.898,65.526,45136,0
2014-03-31,20:00:00,65.546,65.625,65.486,65.536,26006,0
2014-03-31,21:00:00,65.565,65.645,65.456,65.645,28559,0
2014-03-31,22:00:00,65.615,65.974,65.605,65.824,120215,0
2014-04-01,16:00:00,65.974,65.974,65.585,65.864,25275,0
2014-04-01,17:00:00,65.944,66.113,65.924,65.954,23588,0
2014-04-01,18:00:00,65.964,66.073,65.884,66.053,21739,0
2014-04-01,19:00:00,66.073,66.332,66.004,66.322,18645,0
2014-04-01,20:00:00,66.302,66.521,66.263,66.472,31857,0
2014-04-01,21:00:00,66.492,66.551,66.392,66.521,50058,0
2014-04-01,22:00:00,66.531,66.84,66.492,66.77,208867,0
2014-04-02,16:00:00,67.129,67.129,66.332,66.83,30944,0
2014-04-02,17:00:00,66.81,66.94,66.8,66.9,37554,0
2014-04-02,18:00:00,66.91,66.92,66.571,66.631,252982,0
2014-04-02,19:00:00,66.641,66.76,66.571,66.671,44673,0
2014-04-02,20:00:00,66.671,66.691,66.531,66.591,30260,0
2014-04-02,21:00:00,66.591,66.661,66.462,66.521,39067,0
2014-04-02,22:00:00,66.521,66.87,66.492,66.86,63685,0
2014-04-03,16:00:00,67.218,67.228,66.611,66.86,9133,0
2014-04-03,17:00:00,66.731,66.76,66.183,66.263,16438,0
2014-04-03,18:00:00,66.233,66.282,66.093,66.143,14432,0
2014-04-03,19:00:00,66.133,66.243,66.014,66.223,28730,0
2014-04-03,20:00:00,66.163,66.282,66.143,66.243,23968,0
2014-04-03,21:00:00,66.233,66.372,66.103,66.263,28374,0
2014-04-03,22:00:00,66.292,66.561,66.243,66.402,146817,0
2014-04-04,16:00:00,66.82,66.82,66.482,66.641,10104,0
2014-04-04,17:00:00,66.661,66.91,66.472,66.511,16474,0
2014-04-04,18:00:00,66.521,66.541,65.944,66.083,28214,0
2014-04-04,19:00:00,65.994,66.073,65.645,65.735,22808,0
2014-04-04,20:00:00,65.755,65.924,65.645,65.785,27724,0
2014-04-04,21:00:00,65.804,65.854,65.555,65.715,28798,0
2014-04-04,22:00:00,65.725,65.824,65.625,65.765,64559,0
2014-04-07,16:00:00,65.346,65.555,65.177,65.555,7507,0
2014-04-07,17:00:00,65.526,65.546,65.117,65.177,17241,0
2014-04-07,18:00:00,65.077,65.356,65.018,65.177,17852,0
2014-04-07,19:00:00,65.167,65.386,65.127,65.316,13281,0
2014-04-07,20:00:00,65.297,65.307,65.058,65.127,13646,0
2014-04-07,21:00:00,65.147,65.326,64.948,65.326,15887,0
2014-04-07,22:00:00,65.287,65.536,65.127,65.147,147533,0
2014-04-08,16:00:00,65.217,65.406,65.097,65.187,10476,0
2014-04-08,17:00:00,65.117,65.277,64.759,65.257,17821,0
2014-04-08,18:00:00,65.257,65.625,65.257,65.386,14906,0
2014-04-08,19:00:00,65.356,65.426,65.167,65.277,13707,0
2014-04-08,20:00:00,65.336,65.575,65.297,65.426,25195,0
2014-04-08,21:00:00,65.436,65.436,65.207,65.227,14603,0
2014-04-08,22:00:00,65.237,65.605,65.237,65.575,109221,0
2014-04-09,16:00:00,65.804,66.014,65.555,66.004,39025,0
2014-04-09,17:00:00,65.874,66.332,65.844,66.143,51644,0
2014-04-09,18:00:00,66.123,66.143,65.914,66.093,54785,0
2014-04-09,19:00:00,66.043,66.203,65.854,65.894,23892,0
2014-04-09,20:00:00,65.904,65.904,65.625,65.635,21848,0
2014-04-09,21:00:00,65.685,66.004,65.645,65.745,23660,0
2014-04-09,22:00:00,65.785,65.974,65.645,65.964,66416,0
2014-04-10,16:00:00,66.004,66.113,65.625,65.854,13712,0
2014-04-10,17:00:00,65.844,66.063,65.695,65.695,17733,0
2014-04-10,18:00:00,65.575,65.884,65.446,65.685,31407,0
2014-04-10,19:00:00,65.695,65.834,65.585,65.765,27274,0
2014-04-10,20:00:00,65.665,65.824,65.326,65.635,18055,0
2014-04-10,21:00:00,65.575,65.695,65.376,65.426,22731,0
2014-04-10,22:00:00,65.426,65.675,65.187,65.436,110383,0
2014-04-11,16:00:00,67.069,67.069,64.928,65.277,14541,0
2014-04-11,17:00:00,65.187,65.197,64.749,64.998,25087,0
2014-04-11,18:00:00,65.028,65.137,64.689,64.719,18738,0
2014-04-11,19:00:00,64.739,64.878,64.57,64.59,17247,0
2014-04-11,20:00:00,64.639,64.679,64.41,64.51,17480,0
2014-04-11,21:00:00,64.52,64.609,64.281,64.57,36709,0
2014-04-11,22:00:00,64.54,64.639,64.271,64.45,88931,0
2014-04-14,16:00:00,64.858,65.127,64.38,64.599,21563,0
2014-04-14,17:00:00,64.59,65.406,64.59,65.366,48953,0
2014-04-14,18:00:00,65.396,65.396,65.087,65.107,30975,0
2014-04-14,19:00:00,65.107,65.466,65.107,65.426,38277,0
2014-04-14,20:00:00,65.416,65.446,65.137,65.167,28182,0
2014-04-14,21:00:00,65.197,65.237,64.918,64.958,33819,0
2014-04-14,22:00:00,64.938,64.958,64.639,64.918,209172,0
2014-04-15,16:00:00,65.197,65.446,64.809,65.187,12718,0
2014-04-15,17:00:00,65.217,65.217,64.4,64.49,29815,0
2014-04-15,18:00:00,64.45,64.699,64.321,64.52,22856,0
2014-04-15,19:00:00,64.51,64.838,64.321,64.719,41633,0
2014-04-15,20:00:00,64.729,65.287,64.689,65.137,34388,0
2014-04-15,21:00:00,65.137,65.765,65.097,65.645,29722,0
2014-04-15,22:00:00,65.665,65.944,65.585,65.755,83684,0
2014-04-16,16:00:00,66.014,66.263,65.974,66.263,8366,0
2014-04-16,17:00:00,66.133,66.362,66.083,66.183,28830,0
2014-04-16,18:00:00,66.103,66.412,66.053,66.282,20898,0
2014-04-16,19:00:00,66.302,66.422,65.984,65.984,20357,0
2014-04-16,20:00:00,65.984,66.213,65.914,66.093,23818,0
2014-04-16,21:00:00,66.033,66.143,65.974,66.043,19032,0
2014-04-16,22:00:00,66.093,66.203,65.994,66.123,80200,0
2014-04-17,16:00:00,66.173,66.392,65.934,66.183,5313,0
2014-04-17,17:00:00,66.153,66.531,66.123,66.372,18909,0
2014-04-17,18:00:00,66.392,66.422,66.173,66.193,22633,0
2014-04-17,19:00:00,66.193,66.282,66.043,66.153,10232,0
2014-04-17,20:00:00,66.153,66.382,66.063,66.382,17284,0
2014-04-17,21:00:00,66.362,66.541,66.302,66.541,19147,0
2014-04-17,22:00:00,66.472,66.611,66.292,66.292,302628,0
2014-04-21,16:00:00,66.203,66.422,66.173,66.342,6444,0
2014-04-21,17:00:00,66.342,66.442,65.954,66.143,13752,0
2014-04-21,18:00:00,66.113,66.352,66.093,66.352,8273,0
2014-04-21,19:00:00,66.332,66.452,66.203,66.282,201789,0
2014-04-21,20:00:00,66.253,66.502,66.233,66.502,15171,0
2014-04-21,21:00:00,66.482,66.77,66.382,66.77,15324,0
2014-04-21,22:00:00,66.691,66.83,66.531,66.8,70375,0
2014-04-22,16:00:00,66.94,67.039,66.641,67.029,5986,0
2014-04-22,17:00:00,66.96,67.139,66.701,67.119,116127,0
2014-04-22,18:00:00,66.979,67.268,66.89,67.218,33515,0
2014-04-22,19:00:00,67.218,67.457,67.218,67.368,47518,0
2014-04-22,20:00:00,67.368,67.428,67.318,67.378,21359,0
2014-04-22,21:00:00,67.378,67.438,67.318,67.368,18315,0
2014-04-22,22:00:00,67.338,67.388,67.159,67.338,83282,0
2014-04-23,16:00:00,67.159,67.497,67.029,67.139,8172,0
2014-04-23,17:00:00,67.029,67.457,67.029,67.149,22702,0
2014-04-23,18:00:00,67.119,67.278,66.989,67.218,15622,0
2014-04-23,19:00:00,67.189,67.268,67.069,67.179,11690,0
2014-04-23,20:00:00,67.149,67.268,67.069,67.159,9608,0
2014-04-23,21:00:00,67.169,67.248,66.989,67.119,23588,0
2014-04-23,22:00:00,67.099,67.119,66.85,66.92,59143,0
2014-04-24,16:00:00,67.029,67.029,66.113,66.83,14749,0
2014-04-24,17:00:00,66.621,66.75,66.342,66.402,29596,0
2014-04-24,18:00:00,66.412,66.721,66.312,66.392,25310,0
2014-04-24,19:00:00,66.372,66.97,66.372,66.97,111891,0
2014-04-24,20:00:00,66.96,66.999,66.741,66.89,10502,0
2014-04-24,21:00:00,66.8,66.97,66.8,66.9,27642,0
2014-04-24,22:00:00,66.9,67.119,66.88,67.079,110752,0
2014-04-25,16:00:00,67.278,67.278,66.392,66.472,6379,0
2014-04-25,17:00:00,66.492,66.97,66.233,66.691,18704,0
2014-04-25,18:00:00,66.671,66.86,66.292,66.8,19029,0
2014-04-25,19:00:00,66.741,66.77,66.611,66.681,13369,0
2014-04-25,20:00:00,66.631,66.91,66.631,66.82,34019,0
2014-04-25,21:00:00,66.81,66.82,66.621,66.741,25000,0
2014-04-25,22:00:00,66.75,66.97,66.741,66.86,67308,0
2014-04-28,16:00:00,66.91,67.08,66.32,67,27837,0
2014-04-28,17:00:00,66.94,67.48,66.93,67.32,35741,0
2014-04-28,18:00:00,67.34,67.34,66.74,66.74,54835,0
2014-04-28,19:00:00,66.78,67.02,66.67,66.67,54756,0
2014-04-28,20:00:00,66.65,66.69,66.41,66.57,60873,0
2014-04-28,21:00:00,66.56,66.73,66.5,66.52,37807,0
2014-04-28,22:00:00,66.52,66.98,66.5,66.9,152962,0
2014-04-29,16:00:00,66.74,67.28,66.74,67.14,11828,0
2014-04-29,17:00:00,67.13,67.29,67.04,67.27,25850,0
2014-04-29,18:00:00,67.29,67.35,67.2,67.29,32915,0
2014-04-29,19:00:00,67.3,67.35,67.19,67.22,26120,0
2014-04-29,20:00:00,67.24,67.24,67.01,67.04,27752,0
2014-04-29,21:00:00,67.02,67.15,66.99,67.13,38485,0
2014-04-29,22:00:00,67.12,67.2,67.02,67.12,83162,0
2014-04-30,16:00:00,66.8,67.29,66.74,67.05,22297,0
2014-04-30,17:00:00,67,67.07,66.81,66.97,70128,0
2014-04-30,18:00:00,66.96,67,66.76,66.87,50910,0
2014-04-30,19:00:00,66.92,66.96,66.58,66.75,19602,0
2014-04-30,20:00:00,66.79,66.99,66.78,66.96,20145,0
2014-04-30,21:00:00,66.98,67.36,66.89,67.32,59281,0
2014-04-30,22:00:00,67.32,67.47,67.25,67.42,203420,0
2014-05-01,16:00:00,67.65,67.65,67.04,67.19,18246,0
2014-05-01,17:00:00,67.19,67.42,67.14,67.42,36057,0
2014-05-01,18:00:00,67.39,67.49,67.31,67.34,27234,0
2014-05-01,19:00:00,67.34,67.46,67.27,67.45,93413,0
2014-05-01,20:00:00,67.45,67.72,67.19,67.19,40377,0
2014-05-01,21:00:00,67.13,67.29,67.02,67.05,42003,0
2014-05-01,22:00:00,67.11,67.32,67.01,67.19,121012,0
2014-05-02,16:00:00,67.34,67.49,67.02,67.09,43691,0
2014-05-02,17:00:00,67.22,67.22,66.5,66.66,172345,0
2014-05-02,18:00:00,66.53,66.8,66.51,66.7,16340,0
2014-05-02,19:00:00,66.69,66.9,66.65,66.88,26799,0
2014-05-02,20:00:00,66.85,66.85,66.57,66.65,9805,0
2014-05-02,21:00:00,66.6,66.8,66.55,66.77,25077,0
2014-05-02,22:00:00,66.77,66.83,66.66,66.68,80593,0
2014-05-05,16:00:00,66.14,66.52,66.05,66.52,19086,0
2014-05-05,17:00:00,66.68,66.93,66.49,66.62,48397,0
2014-05-05,18:00:00,66.59,66.63,66.2,66.55,117116,0
2014-05-05,19:00:00,66.51,66.57,66.3,66.4,58156,0
2014-05-05,20:00:00,66.4,66.65,66.36,66.5,56300,0
2014-05-05,21:00:00,66.64,66.76,66.46,66.59,64673,0
2014-05-05,22:00:00,66.59,66.75,66.48,66.74,99501,0
2014-05-06,16:00:00,66.48,66.55,66.18,66.49,14969,0
2014-05-06,17:00:00,66.5,66.61,66.33,66.37,49682,0
2014-05-06,18:00:00,66.39,66.63,66.39,66.5,31351,0
2014-05-06,19:00:00,66.54,66.6,66.3,66.52,11364,0
2014-05-06,20:00:00,66.52,66.53,66.24,66.24,14718,0
2014-05-06,21:00:00,66.22,66.35,66.15,66.27,18684,0
2014-05-06,22:00:00,66.27,66.49,66.2,66.37,95498,0
2014-05-07,16:00:00,66.24,66.36,66.01,66.01,63278,0
2014-05-07,17:00:00,66.13,66.16,65.63,65.83,72269,0
2014-05-07,18:00:00,65.82,66.01,65.79,66.01,34361,0
2014-05-07,19:00:00,65.93,66.19,65.9,66.06,41312,0
2014-05-07,20:00:00,66.08,66.12,65.78,65.78,86836,0
2014-05-07,21:00:00,65.77,66.31,65.72,66.18,83240,0
2014-05-07,22:00:00,66.18,66.49,66.09,66.48,131921,0
